Voltage,Current
-0.19800047666061008,-2.2480562281295968e-05
-0.19700071492559718,-2.238412691128404e-05
-0.19600095311221072,-2.2196213574590016e-05
-0.19500119119433962,-2.1926150756443526e-05
-0.19400142914588417,-2.1586580591007643e-05
-0.193001666940759,-2.119210552614157e-05
-0.1920019045528959,-2.0757881219554526e-05
-0.1910021419562467,-2.0298360774655353e-05
-0.19000237912478615,-1.9826371600377506e-05
-0.1890026160325147,-1.9352502896436266e-05
-0.18800285265346142,-1.888488993695185e-05
-0.18700308896168677,-1.8429291958677103e-05
-0.18600332493128555,-1.7989383320447998e-05
-0.18500356053638967,-1.756713433869899e-05
-0.18400379575117093,-1.7163249801842722e-05
-0.18300403054984404,-1.6777531825402634e-05
-0.18200426490666924,-1.640921190610075e-05
-0.1810044987959552,-1.605717521593556e-05
-0.18000473219206192,-1.572010216953273e-05
-0.17900496506940336,-1.539658193310987e-05
-0.17800519740245044,-1.508516055631058e-05
-0.17700542916573372,-1.4784394171926117e-05
-0.17600566033384618,-1.4492890418652401e-05
-0.1750058908814461,-1.4209356836048144e-05
-0.1740061207832598,-1.3932688448615686e-05
-0.1730063500140843,-1.3662020843007168e-05
-0.17200657854879023,-1.3396815911666983e-05
-0.17100680636232463,-1.3136854079253309e-05
-0.17000703342971338,-1.2882260187926766e-05
-0.16900725972606434,-1.2633460808131493e-05
-0.1680074852265698,-1.2391093853335155e-05
-0.1670077099065094,-1.2155916099714322e-05
-0.1660079337412526,-1.192867028573842e-05
-0.16500815670626162,-1.170995785512438e-05
-0.16400837877709393,-1.1500149859560188e-05
-0.16300859992940514,-1.1299285397290378e-05
-0.16200882013895143,-1.1107038681268133e-05
-0.16100903938159244,-1.0922746168615217e-05
-0.1600092576332937,-1.0745469571312363e-05
-0.15900947487012948,-1.0574061366438179e-05
-0.15800969106828525,-1.0407285695125601e-05
-0.1570099062040603,-1.0243923174718707e-05
-0.15601012025387045,-1.0082861921466714e-05
-0.1550103331942506,-9.923180749215794e-06
-0.15401054500185712,-9.764182122743967e-06
-0.15301075565347075,-9.605415942646156e-06
-0.15201096512599882,-9.446701863301565e-06
-0.15101117339647796,-9.288088713862164e-06
-0.1500113804420766,-9.129852543058885e-06
-0.14901158624009742,-8.972430240920598e-06
-0.14801179076797982,-8.816400057739555e-06
-0.14701199400330256,-8.66240229114172e-06
-0.14601219592378598,-8.511095773359314e-06
-0.1450123965072946,-8.363079106078202e-06
-0.14401259573183955,-8.218845537891998e-06
-0.14301279357558086,-8.078725100763166e-06
-0.14201299001682996,-7.942853270865339e-06
-0.14101318503405202,-7.811162329716203e-06
-0.1400133786058684,-7.683394288182249e-06
-0.1390135707110588,-7.559127764303678e-06
-0.1380137613285637,-7.4378229759156614e-06
-0.13701395043748674,-7.318873903172447e-06
-0.1360141380170969,-7.20167071458645e-06
-0.13501432404683086,-7.085657254709169e-06
-0.13401450850629512,-6.970387692026681e-06
-0.1330146913752684,-6.855568578797137e-06
-0.13201487263370365,-6.741082835900713e-06
-0.13101505226173057,-6.626971939909117e-06
-0.13001523023965741,-6.513429008049496e-06
-0.12901540654797344,-6.400716004972244e-06
-0.1280155811673509,-6.289107225817664e-06
-0.12701575407864715,-6.178811692814524e-06
-0.1260159252629069,-6.069930183073865e-06
-0.12501609470136407,-5.962435467602082e-06
-0.12401626237544403,-5.856191946702151e-06
-0.12301642826676557,-5.751010663114375e-06
-0.12201659235714288,-5.6467188718377275e-06
-0.1210167546285876,-5.543223063429625e-06
-0.12001691506331079,-5.440541623197629e-06
-0.11901707364372481,-5.338805939094095e-06
-0.11801723035244535,-5.238233452878521e-06
-0.11701738517229325,-5.139059309198601e-06
-0.1160175380862964,-5.041472524522077e-06
-0.11501768907769169,-4.9455337439509415e-06
-0.11401783812992669,-4.851139380135917e-06
-0.11301798522666162,-4.758000037608738e-06
-0.11201813035177102,-4.665668224580016e-06
-0.1110182734893456,-4.573558615033206e-06
-0.11001841462369395,-4.481049629136289e-06
-0.10901855373934424,-4.387542825274645e-06
-0.10801869082104597,-4.29255743893034e-06
-0.10701882585377158,-4.195790761760713e-06
-0.10601895882271817,-4.097165103600208e-06
-0.10501908971330902,-3.996832498470442e-06
-0.1040192185111953,-3.895150031362497e-06
-0.1030193452022576,-3.792615818855009e-06
-0.10201946977260741,-3.6897984199669047e-06
-0.10101959220858879,-3.587244630562242e-06
-0.10001971249677967,-3.4854057865952737e-06
-0.09902982945346094,-3.384593249529051e-06
-0.09802994542855067,-3.2849480254234315e-06
-0.09702006034392979,-3.186444831230302e-06
-0.09604016970174921,-3.0889239209206017e-06
-0.09503028018509212,-2.992129487256434e-06
-0.09403038734025475,-2.895759975578759e-06
-0.09304049122235977,-2.799522156759895e-06
-0.09204059391862815,-2.7031785290966534e-06
-0.09104069435729385,-2.6065866754883338e-06
-0.090050791556911,-2.509725755744161e-06
-0.08902089031251505,-2.412693623856689e-06
-0.08803098294322313,-2.315696745730371e-06
-0.08704107331945637,-2.2190114400855976e-06
-0.0860211640661205,-2.1229407293296913e-06
-0.08503124983547268,-2.0277623965294124e-06
-0.08402133498467353,-1.9336826334925634e-06
-0.08302141694030768,-1.8408079856364467e-06
-0.08201149733230745,-1.7491399825837847e-06
-0.08102157379937044,-1.658585511447675e-06
-0.08003164794847513,-1.568984566330917e-06
-0.07902172119860522,-1.4801414580613314e-06
-0.07803179064092067,-1.3918632417025106e-06
-0.07704185774197968,-1.3039786213168775e-06
-0.07602192442003722,-1.2163531098106814e-06
-0.07502198736323658,-1.1288907725529159e-06
-0.07401204848921071,-1.0415273958734858e-06
-0.07301210658085433,-9.542094431424114e-07
-0.0720321611594953,-8.6688620404879e-07
-0.07103221444682932,-7.794867493647738e-07
-0.07003226529891073,-6.919184403620127e-07
-0.06903231371016486,-6.040510493421377e-07
-0.06803235967528466,-5.157292430596373e-07
-0.06703240318923122,-4.2677344283706135e-07
-0.06604244384882621,-3.370021572473997e-07
-0.06504248247101073,-2.462395630760864e-07
-0.06404251862856056,-1.5434383718572755e-07
-0.06302255296608543,-6.120927332740433e-08
-0.06203258383384142,3.321489695386528e-08
-0.06103261255001397,1.2893343142158824e-07
-0.06003263878729195,2.2590463249741348e-07
-0.05903266254279911,3.240584942423509e-07
-0.05804268361352548,4.2330390519982737e-07
-0.05701270294866604,5.235389893098125e-07
-0.05603271889401574,6.24650514606103e-07
-0.055032732699122434,7.265217731098437e-07
-0.054032744012163236,8.290236171722874e-07
-0.05305275267994438,9.320220014933349e-07
-0.05205275905529935,1.0353734073485067e-06
-0.05105276293569915,1.1389359317425339e-06
-0.050032764322964385,1.2425674353819546e-06
-0.049002763089172875,1.346136277880212e-06
-0.0480127594081446,1.4495092108233493e-06
-0.04703275335587847,1.5525480939673993e-06
-0.046032744710714536,1.6550945551783132e-06
-0.04502273344819481,1.7569616570027317e-06
-0.04401271964343538,1.8579301499785573e-06
-0.04301270347226366,1.9577641695190627e-06
-0.04202268501114375,2.0562290538223633e-06
-0.04103266411267337,2.1531329526582287e-06
-0.04003264053099085,2.2483490506047743e-06
-0.039042614740259364,2.341852103741481e-06
-0.03804258622228612,2.4337205488916746e-06
-0.0370325549058721,2.5241396969049197e-06
-0.03603252141457174,2.6133751119671565e-06
-0.03504248582617791,2.701752600412934e-06
-0.03403244702920153,2.789619009888109e-06
-0.033032406143286154,2.8773188181675213e-06
-0.03204236324666847,2.9651683012755446e-06
-0.031032317007404917,3.0534428042407853e-06
-0.030042269261705508,3.1423598220155785e-06
-0.029032218085808706,3.2320726941785395e-06
-0.02803216496875532,3.3226669888414396e-06
-0.027042109989350038,3.4141592416751654e-06
-0.02603205145125207,3.506496897617241e-06
-0.02501198983087412,3.5995775806414714e-06
-0.024001926343338642,3.6932588479997176e-06
-0.02300186106868161,3.787391237037323e-06
-0.022001793397510946,3.881825718018753e-06
-0.021021724761814284,3.976436288379213e-06
-0.02002165236768489,4.071106192181644e-06
-0.019031578359321087,4.165729559099431e-06
-0.018021500466717962,4.260180942460116e-06
-0.01702142097653253,4.35430877519796e-06
-0.01602133913807844,4.4479261604302904e-06
-0.01501125410676726,4.540824751437248e-06
-0.014031169329087934,4.63279717521127e-06
-0.013021079624100635,4.723683041333824e-06
-0.01200098663855893,4.813399617073527e-06
-0.01101089409874944,4.9019826112685064e-06
-0.01001079834517132,4.989589064463325e-06
-0.009010700311580333,5.076494851677525e-06
-0.008020601022948928,5.163048300692513e-06
-0.00703049952087744,5.249629497159559e-06
-0.0060303947575519245,5.336584853056832e-06
-0.005020286677214622,5.424179421220588e-06
-0.004030178535321594,5.5125593900028314e-06
-0.003040068225381915,5.601741554188377e-06
-0.0020399546122673176,5.691618717870653e-06
-0.001029837642623291,5.781996979958815e-06
-2.9079569270458027e-05,5.872631355695284e-06
0.001000404151448688,5.963283284542286e-06
0.0020005265231904496,6.053756505606279e-06
0.0030006510297067453,6.143936645573795e-06
0.004000777657348582,6.233799044627432e-06
0.004990905094500871,6.323412682966542e-06
0.005991035901657521,6.412914122562754e-06
0.006991168787748229,6.5024857983081975e-06
0.007981302378530602,6.59230909448067e-06
0.008981439358138563,6.682537664087928e-06
0.009981578372451783,6.773266448137814e-06
0.010981719406230847,6.864527913249087e-06
0.011991863884460167,6.956291114789499e-06
0.012972006010072408,7.048484623732189e-06
0.014012158908920623,7.1410180990511545e-06
0.015002306422444333,7.23381298393376e-06
0.016002457355904585,7.3268124328082965e-06
0.017002610212472367,7.4199908668812885e-06
0.017982761861559605,7.5133416252286475e-06
0.018972916900798022,7.606870213274533e-06
0.019993078557753532,7.700569583904375e-06
0.02098323730590708,7.794422432604962e-06
0.02198339948593655,7.888388711519213e-06
0.022993565134920832,7.98242899664571e-06
0.023973727620620736,8.076512740466796e-06
0.024973895188251608,8.170638294809695e-06
0.025994067925911146,8.264846025425742e-06
0.027004240760602448,8.359227198522654e-06
0.028004413620362482,8.453915438441902e-06
0.02901458994302332,8.549081831298826e-06
0.030014766217749376,8.644918805818479e-06
0.03099494058733999,8.741626544567122e-06
0.03199512014973978,8.83938315232227e-06
0.03299530134333905,8.93834194108465e-06
0.034005485984393465,9.038607152225645e-06
0.03499566854450623,9.140226676178435e-06
0.03600585637935808,9.243185857808872e-06
0.03699604202982864,9.347408417157375e-06
0.03798622917998835,9.452760413047195e-06
0.039016425461941916,9.559061108181316e-06
0.03999661368162406,9.666092224157227e-06
0.04099680719518174,9.773602858808673e-06
0.0420070041118266,9.881320444406345e-06
0.042997198539697475,9.988960631547102e-06
0.04400739831264878,1.0096237662362778e-05
0.04499759549748562,1.0202886641404619e-05
0.04600779803914556,1.0308676804229124e-05
0.04700799991984108,1.041345158797847e-05
0.04800820311604209,1.0517147394936862e-05
0.04899840555425094,1.0619819262398664e-05
0.049978607174634995,1.0721643020067313e-05
0.05099881829802887,1.0822911431136976e-05
0.05200902860828262,1.0923993823673532e-05
0.05299923594483642,1.102530891358493e-05
0.054019450773704715,1.1127257836802078e-05
0.055009660434923065,1.123018255849255e-05
0.056009873341659015,1.1334307245077125e-05
0.0570100873585271,1.1439725264475848e-05
0.05800030030572869,1.1546376233179783e-05
0.059010518628694365,1.1654077391433587e-05
0.06002073801194436,1.1762547935486687e-05
0.06100095186915387,1.1871471798418171e-05
0.06200117107261802,1.1980553569289012e-05
0.0630013912439509,1.2089570319659746e-05
0.06400161235901632,1.219840814708646e-05
0.06503184106856325,1.230708782216737e-05
0.06601205955702015,1.2415746763831033e-05
0.0670122833660279,1.252460727144623e-05
0.06802251027170764,1.2633935283955495e-05
0.06902273575604377,1.2743988420620579e-05
0.07001295977005338,1.2854976362505564e-05
0.07101318681467277,1.296702698471825e-05
0.0720034123246554,1.308018955872288e-05
0.07300364083099499,1.3194454323069418e-05
0.07400387003445673,1.3309770917029076e-05
0.07500409990991423,1.3426094621964662e-05
0.07600433043216752,1.3543416471633605e-05
0.07700456157594561,1.3661793957405505e-05
0.07803480027705399,1.3781358453488599e-05
0.07902503027851665,1.3902313245174923e-05
0.0800252631452222,1.4024917917238745e-05
0.08101549419485787,1.4149466006570808e-05
0.08202573041087764,1.4276257535335241e-05
0.08301596241289384,1.4405576711484998e-05
0.08403620189873966,1.4537674287735547e-05
0.08502643475540356,1.467276375338633e-05
0.0860166679951288,1.481102788591241e-05
0.08702690631551645,1.4952640985655902e-05
0.08801714025261223,1.5097795128882368e-05
0.08901737686455455,1.5246729821480345e-05
0.09001761376405738,1.5399766275216307e-05
0.09102785329799468,1.5557325003700642e-05
0.09203809307199372,1.5719933613933955e-05
0.09302832830512062,1.588823704782403e-05
0.09402856609659609,1.6062962301671426e-05
0.09501880166508368,1.6244914471235768e-05
0.09600903736232426,1.6434922800946343e-05
0.09701927792753363,1.6633824984741692e-05
0.0980095138076133,1.6842414130080203e-05
0.0990097521232656,1.70614304123254e-05
0.09999998808261434,1.7291533221997892e-05
0.10100022642660411,1.7533323317207262e-05
0.1020004647457719,1.7787356609353718e-05
0.10300070301399208,1.8054201829350623e-05
0.10400094120514454,1.8334492529571064e-05
0.10500117929311764,1.8628994091380724e-05
0.10600141725181107,1.8938656893254222e-05
0.10700165505513866,1.926467866305553e-05
0.10800189267703128,1.9608541735692044e-05
0.1090021300914397,1.9972038449077456e-05
0.11000236727233743,2.0357301436874077e-05
0.1110026041937236,2.076683538159056e-05
0.11200284082962572,2.1203563910671346e-05
0.1130030771541027,2.1670898026814885e-05
0.1140033131412475,2.2172840563788025e-05
0.1150035487651901,2.27141365639033e-05
0.1160037840001003,2.3300457726759724e-05
0.11700401882019053,2.393864087580128e-05
0.11800425319971868,2.4636952116347666e-05
0.119004487112991,2.540539166883432e-05
0.1200047205343648,2.6255990208899582e-05
0.12100495343825131,2.7203092516585776e-05
0.12200518579911852,2.8263582774707134e-05
0.12300541759149393,2.945705926038935e-05
0.12400564878996737,3.080584916110282e-05
0.12500587936919375,3.233495452786902e-05
0.1260061093038959,3.4071772584178666e-05
0.1270063385688673,3.604569080510154e-05
0.12800656713897485,3.8287526882083855e-05
0.12910681773362223,4.0828728340654575e-05
0.1300070220944495,4.370057634527938e-05
0.13100724842994224,4.69331816512232e-05
0.13200747397082785,5.055449327924056e-05
0.13300769869238147,5.4589398316523186e-05
0.13400792256996805,5.9058818890266444e-05
0.13500814557904509,6.397899728646871e-05
0.13600836769516525,6.936100667289294e-05
0.13700858889397913,7.521038303848403e-05
0.1380088091512379,8.15269478311742e-05
0.13900902844279586,8.830488382967689e-05
0.1400092467446133,9.553283929891228e-05
0.14100946403275882,0.00010319418485663286
0.14200968028341243,0.0001112674346148425
0.14300989547286763,0.00011972666649249173
0.14401010957753435,0.0001285421842610293
0.1450103225739414,0.00013768123514720893
0.14601053443873913,0.00014710887762666697
0.1470107451487019,0.00015678902461028438
0.14801095468073072,0.0001666855336188349
0.14901116301185566,0.00017676323483698788
0.1500113701192385,0.00018698896378809075
0.15101157598017517,0.0001973323910370998
0.1520117805720982,0.00020776654040627327
0.15301198387257925,0.00021826813743367832
0.15401218585933155,0.00022881761966813213
0.1550123865102124,0.00023939889958642379
0.15601258580322547,0.000249999020645537
0.15701278371652333,0.00026060761553162046
0.1580129802284098,0.0002712163458415959
0.15901317531734227,0.00028181840381810556
0.16001336896193422,0.0002924080194603932
0.16101356114095738,0.0003029800584258989
0.1620137518333442,0.00031352966380423326
0.1630139410181901,0.00032405204539626614
0.16401412867475573,0.00033454218433221747
0.16501431478246925,0.0003449946851565286
0.16601449932092868,0.00035540362689550384
0.16701468226990407,0.0003657623924514142
0.16801486360933965,0.000376063583018632
0.1691150611999797,0.00038629891165655177
0.1700152213802529,0.00039645926667256017
0.17101539777251004,0.00040653468304131926
0.17201557247679056,0.0004165144605455907
0.17301574547394266,0.00042638728676178806
0.1740159167450015,0.00043614128172327673
0.17501608627119153,0.000445764090658842
0.17601625403392854,0.00045524292234594177
0.17701642001482154,0.00046456445774230504
0.17801658419567493,0.00047371490019314813
0.17901674655849045,0.0004826799072578529
0.1800169070854691,0.0004914445982254134
0.18101706575901316,0.0004999936463773377
0.1820172225617281,0.0005083114062008971
0.1830173774764244,0.0005163820716841897
0.18401753048611968,0.0005241899317518004
0.18501768157404025,0.0005317194686970459
0.1860178307236231,0.0005389555478839829
0.18701797791851782,0.0005458834646002242
0.18801812314258814,0.0005524888132484855
0.18901826637991395,0.0005587573318529406
0.1900184076147929,0.0005646747120894416
0.19101854683174216,0.0005702262137246486
0.19201868401550007,0.0005753964981626077
0.19311883255135576,0.0005801694528557044
0.19411896541672885,0.000584528182100131
0.19511909620302337,0.0005884550752641869
0.1961192248959019,0.0005919320320795191
0.19701933891795692,0.000594940649583237
0.19801946359466863,0.0005974623947060393
0.19901958613768914,0.0005994785293805388
0.20001970653358467,0.0006009698103212039
0.20101982476915692,0.0006019159396828439
0.20201994083144428,0.0006022948295995581
0.2030200547077235,0.0006020815655137174
0.20402016638551088,0.0006012473979049981
0.20502027585256383,0.0005997586914750647
0.206020383096882,0.0005975760493253681
0.20712049848434916,0.0005946535691727071
0.20802059087053257,0.0005909383453127857
0.20902069137708781,0.0005863700938508082
0.21002078961535653,0.0005808810774988505
0.21102088557456938,0.0005743962500922818
0.21202097924420688,0.0005668338604325561
0.2130210706140005,0.0005581065664360031
0.21402115967393387,0.0005481234121040426
0.2150212464142438,0.0005367930439797668
0.21602133082542144,0.0005240285435754657
0.2170214128982132,0.0005097540715781817
0.2180214926236219,0.0004939135716849172
0.21912157759992065,0.0004764810135473763
0.22012165236768488,0.0004574715700910192
0.22112172476181427,0.000436952322514195
0.22212179477437263,0.00041505090918619186
0.22302185574308306,0.000391960251680106
0.22412192762433775,0.0003679378031993943
0.22512199044718087,0.00034329838508912565
0.2260220449267848,0.00031840051768556297
0.22712210885415426,0.00029362725316071047
0.22812216442530422,0.00026936351068151563
0.2290222123620548,0.00024597258839760344
0.23002226331165512,0.00022377457445285685
0.23112231653710455,0.00020302919567531094
0.23212236235529338,0.00018392488364389777
0.23312240572201515,0.00016657462489850207
0.23412244663251586,0.00015101853398889439
0.23512248508231062,0.00013723175717033235
0.23612252106718443,0.00012513626714191292
0.23712255458319245,0.00011461447179192295
0.2381225856266605,0.00010552303528417609
0.23912261419418546,9.77055535029554e-05
0.24002263778543256,9.10031414268286e-05
0.241122663889151,8.526249759090977e-05
0.24202268301081611,8.03414843931203e-05
0.24302270189475103,7.611239728215504e-05
0.24412271979257213,7.246347859687017e-05
0.24512273344819482,6.929890149963025e-05
0.24612274461166952,6.653795461721308e-05
0.24712275328177238,6.411349526070559e-05
0.24812275945755305,6.197025058025868e-05
0.24912276313833442,6.006307690220659e-05
0.25002276431747417,5.835525092344786e-05
0.25112276301355896,5.681695491462063e-05
0.25212275920801575,5.542393468250518e-05
0.25312275290750064,5.415638425946042e-05
0.25402274510440126,5.2998058645190554e-05
