Voltage,Current
-0.19789200507075616,-2.4225270028136738e-05
-0.19683802240493947,-2.3894265731482627e-05
-0.19578405749587202,-2.3333911400785488e-05
-0.19473011625944217,-2.267839431183329e-05
-0.19367620460894305,-2.2023412020664178e-05
-0.19262232845442454,-2.1403488353716215e-05
-0.1915684937020452,-2.0810403718580026e-05
-0.19051470625342504,-2.0225569708311658e-05
-0.1894609720049982,-1.9647901495040124e-05
-0.18840729684736693,-1.909918125607396e-05
-0.18735368666465557,-1.8602960318539166e-05
-0.18630014733386566,-1.8160859126071353e-05
-0.18524668472423161,-1.7751304305344385e-05
-0.18419330469657727,-1.7352830142930054e-05
-0.18314001310267347,-1.6964629366886097e-05
-0.18208681578459654,-1.6595361870242948e-05
-0.18103371857408782,-1.6240921303638733e-05
-0.17998072729191436,-1.589163997893588e-05
-0.17892784774723094,-1.555343595841595e-05
-0.17787508573694302,-1.5241861495001806e-05
-0.17682244704507152,-1.495895877006623e-05
-0.1757699374421185,-1.4690014438063876e-05
-0.17471756268443472,-1.442175386472641e-05
-0.17366532851358862,-1.4154075471421275e-05
-0.17261324065573674,-1.3892077479976548e-05
-0.1715613048209962,-1.3634196196850738e-05
-0.17050952670281858,-1.3373577003603855e-05
-0.16945791197736584,-1.310777231176514e-05
-0.168406466302888,-1.2841124873009215e-05
-0.167355195319103,-1.2577992190484371e-05
-0.1663041046465783,-1.2318831221346209e-05
-0.16525319988611484,-1.206331712933677e-05
-0.16420248661813291,-1.1813121899457003e-05
-0.16315197040206064,-1.1572346893785846e-05
-0.16210165677572425,-1.1349560246297396e-05
-0.16105155125474116,-1.115529044306486e-05
-0.16000165933191537,-1.0990195302829588e-05
-0.15895198647663514,-1.0840330255604522e-05
-0.15790253813427357,-1.069032301816152e-05
-0.15685331972559158,-1.0536357044907271e-05
-0.15580433664614368,-1.0383023025547728e-05
-0.15475559426568644,-1.0233587293841765e-05
-0.15370709792758994,-1.0086098297496693e-05
-0.15265885294825185,-9.93618040178723e-06
-0.15161086461651477,-9.782022907142309e-06
-0.15056313819308634,-9.624508577036699e-06
-0.14951567890996262,-9.462079997949054e-06
-0.14846849196985443,-9.292524067609946e-06
-0.14742158254561707,-9.121682650069488e-06
-0.14637495577968332,-8.959843163720726e-06
-0.1453286167834995,-8.805823890137853e-06
-0.14428257063696534,-8.645569215373654e-06
-0.14323682238787694,-8.472228184684917e-06
-0.14219137705137355,-8.298335796270795e-06
-0.14114623960938769,-8.141089815269214e-06
-0.14010141501009896,-8.00364356948815e-06
-0.13905690816739172,-7.878161007073222e-06
-0.13801272396031639,-7.759283273388145e-06
-0.1369688672325545,-7.64558313358845e-06
-0.1359253427918877,-7.53298682949195e-06
-0.13488215540967088,-7.415941947769524e-06
-0.1338393098203089,-7.295800893045153e-06
-0.13279681072073768,-7.181749677006726e-06
-0.13175466276990933,-7.079456721072287e-06
-0.13071287058828135,-6.983209870507109e-06
-0.12967143875731016,-6.8824871610796085e-06
-0.1286303718189488,-6.770713927415329e-06
-0.1275896742751491,-6.646353754225657e-06
-0.1265493505873681,-6.512206548600185e-06
-0.12550940517607895,-6.375122390293689e-06
-0.12446984242028637,-6.243142588435758e-06
-0.12343066665704659,-6.12281588689597e-06
-0.12239188218099185,-6.0188124486359415e-06
-0.12135349324385968,-5.9316986333654514e-06
-0.12031550405402672,-5.85401721648901e-06
-0.11927791877604745,-5.7726212425812325e-06
-0.11824074153019763,-5.677206247965427e-06
-0.11720397639202261,-5.5657507459591976e-06
-0.11616762739189052,-5.444341076035539e-06
-0.1151316985145505,-5.323251015537974e-06
-0.11409619369869585,-5.209319721314245e-06
-0.11306111683653224,-5.101770210847704e-06
-0.11202647177335098,-4.998145250927485e-06
-0.11099226230710763,-4.9014455298312465e-06
-0.10995849218800548,-4.816888732988157e-06
-0.10892516511808456,-4.742485738072683e-06
-0.10789228475081572,-4.667298205731536e-06
-0.10685985469070017,-4.5822139403348144e-06
-0.10582787849287434,-4.490807695922413e-06
-0.10479635966272008,-4.40534339877877e-06
-0.10376530165548051,-4.330942712194883e-06
-0.10273470787588108,-4.256339827920184e-06
-0.1017045816777565,-4.163116175425075e-06
-0.10067492636368292,-4.043590553147432e-06
-0.09964574518461597,-3.90752307772867e-06
-0.09861704133953439,-3.772789392345168e-06
-0.0975888179750893,-3.6526369195112714e-06
-0.09656107818525925,-3.5498016864881576e-06
-0.09553382501101106,-3.457730425867387e-06
-0.09451732664246273,-3.3669797860586675e-06
-0.09349105066885327,-3.272475339314594e-06
-0.09245501478929014,-3.174773771726255e-06
-0.09145023806194648,-3.076335826019136e-06
-0.09041520632962421,-2.9801561685705966e-06
-0.08939092864868675,-2.889916568707742e-06
-0.08837739253023302,-2.806215378928289e-06
-0.08735412508165016,-2.723079172929687e-06
-0.08633136912832066,-2.6324012512396574e-06
-0.0853193470321915,-2.531628805934228e-06
-0.0842669724028495,-2.424444109442061e-06
-0.08325598546465406,-2.315372184531812e-06
-0.08224550931305113,-2.2065363420112214e-06
-0.08120494923452823,-2.099214075991763e-06
-0.08019551684400932,-1.9962336070203704e-06
-0.07916622495849361,-1.901008567735812e-06
-0.07814765662554417,-1.814265248763457e-06
-0.07711944255845961,-1.7327895255565813e-06
-0.07611211774729983,-1.6518272647882084e-06
-0.07510531810591012,-1.5686041317590533e-06
-0.07407872214130003,-1.48317924171661e-06
-0.07307298889675237,-1.3960755954116463e-06
-0.07206778610053632,-1.3067605799718686e-06
-0.07103267914192761,-1.2152935473896591e-06
-0.07001841837395684,-1.1240275576205152e-06
-0.06899456932683075,-1.0360666424431617e-06
-0.06798140775482404,-9.520181824347768e-07
-0.06698904210860782,-8.68966236602971e-07
-0.06597696902821196,-7.829760786239869e-07
-0.06496544769245075,-6.928024676695898e-07
-0.06395447936434744,-6.014591700248553e-07
-0.06294406524630196,-5.139039709493341e-07
-0.06193420647995916,-4.3225607379000315e-07
-0.06093499441168259,-3.529031319328328e-07
-0.05992624395067041,-2.6930536633618324e-07
-0.05891805189126277,-1.7821596744714949e-07
-0.05789027218702342,-8.197941658542185e-08
-0.05689327861328716,1.567296422338439e-08
-0.05588677251448745,1.1391160551395248e-07
-0.05488082804809036,2.1390570462568402e-07
-0.053875445865756384,3.157336017074781e-07
-0.05288067196257566,4.1766016876031675e-07
-0.051846291283549575,5.17740314095938e-07
-0.05086267861475321,6.157666174591396e-07
-0.049859550851542284,7.140124643519767e-07
-0.04885698770490128,8.154977687640208e-07
-0.04787502388328113,9.213244355861417e-07
-0.046873579446727646,1.0307169192560803e-06
-0.045872700281357696,1.142574592584405e-06
-0.04485238597468307,1.254555216285346e-06
-0.04382266550948168,1.3618227636906346e-06
-0.04283349950410867,1.4602209904217971e-06
-0.04185487073982448,1.5514239064197275e-06
-0.040856829437159715,1.6434713051449735e-06
-0.03984938113745764,1.7450127874107544e-06
-0.0388425088219916,1.8584002421160673e-06
-0.0378461726543063,1.9775149043516466e-06
-0.03686035531025971,2.091767031165271e-06
-0.03587509018614816,2.193655674313791e-06
-0.03488043298578544,2.2840069970837156e-06
-0.033896276280078345,2.369303488085482e-06
-0.032902737473717504,2.4541939662064555e-06
-0.031899832697961844,2.5384871265998188e-06
-0.030907420676780078,2.620725579355991e-06
-0.029925483784981152,2.7016480775593995e-06
-0.028924273847826337,2.7837963185154796e-06
-0.027933537192530132,2.8692989945152033e-06
-0.026953256093346447,2.9581813088585673e-06
-0.025953732322952314,3.0483041943326246e-06
-0.02497454985920541,3.1368514970565845e-06
-0.023976144560418605,3.2220039607291507e-06
-0.022988179061068818,3.3045885832467257e-06
-0.022010635506720166,3.38914185931624e-06
-0.021013898229953896,3.4818097448367835e-06
-0.02000785929200935,3.585245832911886e-06
-0.019012243387857633,3.6951055881501e-06
-0.018027032384091764,3.802089538539273e-06
-0.017042364348037187,3.898878505527243e-06
-0.01607791484045888,3.9856898297831684e-06
-0.01509431686470038,4.0688506004256625e-06
-0.014121084619038105,4.154805780607265e-06
-0.01312873240865092,4.246480346322918e-06
-0.01214674215556543,4.344163166925556e-06
-0.01116528393953498,4.446999044335822e-06
-0.010174549115302307,4.552493632725692e-06
-0.00921375682679953,4.65660018617953e-06
-0.008224080897115522,4.755733242289487e-06
-0.007225148228430548,4.8478811269016845e-06
-0.006256114572128771,4.932160399479312e-06
-0.005277809045461828,5.009390575655409e-06
-0.004300020091430962,5.082929572368013e-06
-0.0033325154864706228,5.1568170457426635e-06
-0.0023655123710393158,5.2329886504920015e-06
-0.0013892481438037719,5.311885287922849e-06
-0.00040373543755765906,5.395093391075205e-06
0.0005617633222748464,5.485276583756668e-06
0.001526770877170582,5.58310241505251e-06
0.0025010300460365223,5.6852492595157044e-06
0.0034845287405722253,5.7863657297837535e-06
0.004458417372585581,5.88325318399633e-06
0.005459746505281155,5.976263370823082e-06
0.006432021269938155,6.0668202094319834e-06
0.007403812367978113,6.155656053487289e-06
0.00837512289179414,6.24342756251472e-06
0.009336250008334279,6.330679919419389e-06
0.010306613597587416,6.41657832427517e-06
0.011276506171757818,6.499294087367361e-06
0.01223623908699151,6.579117446183254e-06
0.013205204210693237,6.660461171685133e-06
0.014173708340041103,6.749122036758716e-06
0.015141754927761257,6.847217363542793e-06
0.016119021121310764,6.951307790686401e-06
0.01706682033711906,7.055166784512668e-06
0.018072178707528662,7.153870241413994e-06
0.019028757207578795,7.245983519811105e-06
0.019994560867423808,7.333062581364284e-06
0.020959928817127965,7.417594232182497e-06
0.021905570340467286,7.502069843098632e-06
0.022860443771942098,7.589890171283422e-06
0.023843817855927412,7.684924436880486e-06
0.024797850974571337,7.788045119353406e-06
0.02576110654795464,7.894491484039335e-06
0.026733576175276743,7.996415073673595e-06
0.02767676249423563,8.089219597796595e-06
0.02863879742211245,8.175404894240305e-06
0.029619660998993737,8.261755241460153e-06
0.030590502591809152,8.352857873769288e-06
0.031551338504911146,8.447923911471604e-06
0.032521389843581355,8.543488260475046e-06
0.033481452042626876,8.637642708861777e-06
0.03442194587995469,8.730921864345415e-06
0.03538126320500696,8.824402925114682e-06
0.03634021095625853,8.918770941477351e-06
0.037308377632536874,9.015256889291991e-06
0.0382570157787465,9.115754620550456e-06
0.03922445885017812,9.221290474911253e-06
0.04017239682741251,9.331216777469706e-06
0.041119995026573514,9.443743602419292e-06
0.04210552427476578,9.556215619523255e-06
0.04304288015686206,9.665852150139552e-06
0.04399903662851528,9.771955725546147e-06
0.04496442207745313,9.87697415586474e-06
0.04591037139712498,9.984324499253719e-06
0.04687510970508444,1.009591506046208e-05
0.047820434390926495,1.021185318293933e-05
0.04878454540456575,1.0329710399361042e-05
0.04973880617004917,1.0443402857233333e-05
0.05069276888715473,1.0547383911386923e-05
0.051636903339258675,1.0643095373999591e-05
0.05257122308238441,1.0736468274575486e-05
0.0535433897697478,1.0829733141866214e-05
0.05450574068674652,1.092143128105104e-05
0.05544876534205797,1.1012296967685244e-05
0.05642009249613598,1.1105348564504316e-05
0.057362590462272524,1.1202100915415297e-05
0.05831435310554893,1.1302469323542785e-05
0.059265864230997806,1.1407366054401923e-05
0.06020761770614754,1.1519171398576483e-05
0.06116815321772089,1.1638624979595416e-05
0.062128448505270086,1.1761812308832372e-05
0.06305999580386902,1.1882492228411035e-05
0.06401033182471626,1.1997906357193408e-05
0.06496044855973791,1.2109758763842171e-05
0.06591035147737319,1.2218969230116954e-05
0.06688853374623233,1.2322865983583674e-05
0.0678190317631725,1.2419782199280921e-05
0.06876832432596462,1.2513570368719176e-05
0.06972691528919715,1.2610873441452634e-05
0.07067582828009274,1.2715656738917075e-05
0.07161507439650042,1.2827469599336126e-05
0.0725636338807796,1.2943802406704764e-05
0.0735025410610604,1.306357092030586e-05
0.07445076936972665,1.3186859403464123e-05
0.0753988397344474,1.3311115834029583e-05
0.07634675784799462,1.3431171213316217e-05
0.07729452941983078,1.3544468402029672e-05
0.07824216017548294,1.3653936851283116e-05
0.07921807869955305,1.3765151121775686e-05
0.08015596826466491,1.3881866882489206e-05
0.08110320866410593,1.4004006283170094e-05
0.08204086074919581,1.4128210644396658e-05
0.08299734230902903,1.4250036055092598e-05
0.08393477861738911,1.4368809955106803e-05
0.0849005193469,1.4491080065871695e-05
0.08583776202143377,1.46248049456906e-05
0.08677491790742126,1.4770397429185325e-05
0.08773092268973691,1.492150743396003e-05
0.0886679205755031,1.5072153394311602e-05
0.08961431243287625,1.5219544279145321e-05
0.09056063913891255,1.5363475935819887e-05
0.09151636897254295,1.550730444671033e-05
0.09247204441642551,1.5657789105563203e-05
0.09340874866603614,1.5819608687004265e-05
0.09435487328169412,1.599031738906683e-05
0.09529150155008038,1.616405098484825e-05
0.09622810064746802,1.6339528646885765e-05
0.09718359683025152,1.6521402801983666e-05
0.09812015450257787,1.6715136879974815e-05
0.09906616035776254,1.6923864852917746e-05
0.10000270007043491,1.714891946379399e-05
0.1009486995053247,1.7390519557526357e-05
0.1018947045640171,1.764811376723872e-05
0.10284072116569269,1.7920129400949735e-05
0.10378675522826664,1.820269050966106e-05
0.10473281266773997,1.8490830830403598e-05
0.10567889939755105,1.878359806416091e-05
0.10662502132792727,1.9086738746834132e-05
0.10757118436523717,1.9408041874332718e-05
0.10851739441134299,1.9750713578773387e-05
0.10946365736295359,2.0112916113559334e-05
0.11040997911097812,2.0493202794578712e-05
0.11135636553988018,2.0895023013743793e-05
0.11230282252703272,2.1324671160840427e-05
0.11324935594207379,2.1785708810938108e-05
0.11419597164626305,2.2278504275592637e-05
0.11514267549183924,2.2805700451287246e-05
0.1160894733213786,2.3374564497841155e-05
0.11703637096715441,2.39921088761094e-05
0.11798337425049768,2.46605674776859e-05
0.11893048898115884,2.538027437906103e-05
0.11987772095667099,2.6157339267006907e-05
0.1208250759617143,2.7008039160100472e-05
0.12177255976748182,2.79551026530533e-05
0.12272017813104692,2.9021455242340134e-05
0.12366793679473205,3.0230390928744898e-05
0.12461584148547931,3.161084122149541e-05
0.12556389791422268,3.319907344742339e-05
0.1265121117752618,3.5034889993921724e-05
0.127555335631725,3.7159385303511686e-05
0.12840903448451152,3.9617595176158104e-05
0.1293577546325417,4.245909208860896e-05
0.13030665481126816,4.573263722002107e-05
0.13125574062249476,4.948044307876553e-05
0.1322050176476754,5.373554589405389e-05
0.1331544914473022,5.852052602941453e-05
0.13410416756029603,6.384751855045738e-05
0.13505405150339914,6.971971306025056e-05
0.13600414877057043,7.613177792482907e-05
0.13695446483238327,8.306791836674285e-05
0.1379050051354257,9.050241559693508e-05
0.13885577510170335,9.840785489778636e-05
0.13980678012804518,0.00010676535486601423
0.14075802558551168,0.0001155638864001481
0.1417095168188061,0.00012478569535553645
0.14266125914568867,0.00013439130885818158
0.14361325785639353,0.00014432056571315766
0.14456551821304878,0.00015450714347930723
0.1455180454490997,0.0001648893790153479
0.14647084476873493,0.0001754118500126458
0.14742392134631607,0.00018602177068324284
0.14837728032581043,0.00019667160873336687
0.149330926820227,0.00020733359840608792
0.1502848659110561,0.00021800007272608702
0.15123910264771218,0.00022866709039691516
0.15219364204698038,0.000239332909603085
0.1531484890924666,0.00024999992727391313
0.154103648734051,0.0002606664743199992
0.1550591258873455,0.0002713291527957232
0.15601492543315498,0.00028198343645621197
0.15697105221694202,0.000292614293554875
0.15792751104829586,0.0003032099399262327
0.15888430670040518,0.0003137849256603999
0.15984144390953467,0.00032436462456488543
0.160798927374506,0.0003349428302736821
0.1617567617561826,0.0003454748330603214
0.16271495167695876,0.00035592688280680987
0.16367350172025294,0.0003663119004489321
0.16463241643000523,0.0003766618832574605
0.16568764917476753,0.0003869941767836295
0.16655135782426841,0.0003973073821124804
0.16751139339480667,0.00040757234797265604
0.1684718114028835,0.00041773017985985135
0.169432616187664,0.00042772949105684846
0.1703938120459128,0.00043756721355928845
0.17135540323152323,0.00044728192734796275
0.172317393955051,0.00045689943435937044
0.17327978838325261,0.0004663920631173119
0.1742425906386285,0.0004757084091766086
0.17520580479897113,0.0004848263171661802
0.17616943489691814,0.0004937523147979191
0.17713348491950995,0.0005024883458758145
0.17809795880775298,0.0005110157912890888
0.17906286045618744,0.0005192966318900497
0.18002819371246045,0.000527292259005772
0.18099396237690427,0.0005349904092506582
0.18196017020211958,0.0005423935307254685
0.18292682089256432,0.0005494818058547676
0.1838939181041473,0.0005562184530095789
0.18486146544382767,0.0005625875231848289
0.18582946646921936,0.0005686002571951683
0.1867979246882012,0.0005742698722456132
0.1877668435585322,0.0005795994956660784
0.18883319043325383,0.0005845823887714613
0.18980308770132326,0.0005891929255189742
0.19077345601722043,0.0005933863019014187
0.19174429862931058,0.0005971185034458651
0.19261846514631703,0.000600360919862988
0.1935902176839189,0.0006030938102104373
0.19456245364269312,0.0006052915594771595
0.19553517606626503,0.0006069224165758225
0.19650838794493147,0.0006079745246148599
0.19748209221533286,0.0006084786096742985
0.19845629176013135,0.0006084779935973826
0.19943098940769463,0.0006079699335523211
0.20040618793178627,0.0006069000298156638
0.20138189005126114,0.000605208716808063
0.20245574721276122,0.0006028536386230801
0.20333481567545597,0.0005997925666372263
0.20431204434069145,0.0005959686179467927
0.2052897869217754,0.0005913106674357493
0.2062680458586713,0.0005857420146249516
0.20724682353473722,0.0005791860973626947
0.2082261222764645,0.0005715524570503465
0.20920594435322296,0.0005627193560973265
0.21018629197701183,0.0005525568927656982
0.21116716730221743,0.0005409750671516815
0.21214857242537705,0.0005279139482658367
0.21313050938494885,0.0005132664919022765
0.214211256673105,0.0004968380379639483
0.21519431686470036,0.0004783906388441179
0.21617791484045887,0.0004576929352057404
0.21716205239844788,0.00043451979044108023
0.21804823898188433,0.00040868146605391284
0.2191319531574386,0.00038018443600970267
0.22011771965806134,0.000349468609316198
0.22100537645023818,0.00031750123523334087
0.22209089270310775,0.0002855725059489407
0.22307830218842895,0.00025492219477437565
0.223967441366543,0.00022647633530105768
0.22495589793634332,0.00020080564339862412
0.22604383887687185,0.00017819826912920982
0.2270334580483402,0.000158714847637309
0.2280236326380751,0.00014220992037924403
0.22901436372318448,0.0001283740939404172
0.23000565231977058,0.00011681566666628324
0.2309974993828186,0.00010714855064349818
0.231989905806092,9.904668739548503e-05
0.23298287242203455,9.22481282807626e-05
0.23397640000167905,8.652949402831499e-05
0.23487105503502873,8.168995592274013e-05
0.23596514082864975,7.755576743311032e-05
0.23686080851582483,7.398779162648381e-05
0.23785653006450794,7.087941931777538e-05
0.23895247503272704,6.814662121577359e-05
0.23994938113745765,6.572070793801892e-05
0.24094685187736306,6.354900703239794e-05
0.24194488752971266,6.159487682713925e-05
0.24294348830984758,5.9831283959043565e-05
0.2439426543711569,5.823457377741414e-05
0.24484238721857887,5.678264113268973e-05
0.24594268264100108,5.5454824331684796e-05
0.24694354484643688,5.4232922633581756e-05
0.24794497232684928,5.310359003896594e-05
0.24884674024126896,5.205900718035403e-05
