Voltage,Current
V,A
-0.198,-2.50E-05
-0.197,-2.42E-05
-0.196,-2.34E-05
-0.195,-2.25E-05
-0.194,-2.20E-05
-0.193,-2.13E-05
-0.192,-2.08E-05
-0.191,-2.04E-05
-0.19,-1.95E-05
-0.189,-1.90E-05
-0.188,-1.85E-05
-0.187,-1.80E-05
-0.186,-1.79E-05
-0.185,-1.74E-05
-0.184,-1.68E-05
-0.183,-1.65E-05
-0.182,-1.64E-05
-0.181,-1.59E-05
-0.18,-1.54E-05
-0.179,-1.52E-05
-0.178,-1.49E-05
-0.177,-1.48E-05
-0.176,-1.44E-05
-0.175,-1.41E-05
-0.174,-1.39E-05
-0.173,-1.36E-05
-0.172,-1.35E-05
-0.171,-1.30E-05
-0.17,-1.29E-05
-0.169,-1.25E-05
-0.168,-1.24E-05
-0.167,-1.20E-05
-0.166,-1.18E-05
-0.165,-1.16E-05
-0.164,-1.13E-05
-0.163,-1.10E-05
-0.162,-1.10E-05
-0.161,-1.09E-05
-0.16,-1.07E-05
-0.159,-1.05E-05
-0.158,-1.04E-05
-0.157,-1.02E-05
-0.156,-1.01E-05
-0.155,-9.96E-06
-0.154,-9.82E-06
-0.153,-9.51E-06
-0.152,-9.59E-06
-0.151,-9.30E-06
-0.15,-9.09E-06
-0.149,-8.85E-06
-0.148,-8.85E-06
-0.147,-8.76E-06
-0.146,-8.49E-06
-0.145,-8.18E-06
-0.144,-8.08E-06
-0.143,-8.05E-06
-0.142,-7.88E-06
-0.141,-7.70E-06
-0.14,-7.67E-06
-0.139,-7.51E-06
-0.138,-7.50E-06
-0.137,-7.27E-06
-0.136,-7.10E-06
-0.135,-7.05E-06
-0.134,-7.09E-06
-0.133,-6.81E-06
-0.132,-6.85E-06
-0.131,-6.65E-06
-0.13,-6.53E-06
-0.129,-6.35E-06
-0.128,-6.22E-06
-0.127,-6.12E-06
-0.126,-5.97E-06
-0.125,-5.87E-06
-0.124,-5.90E-06
-0.123,-5.82E-06
-0.122,-5.67E-06
-0.121,-5.63E-06
-0.12,-5.44E-06
-0.119,-5.26E-06
-0.118,-5.20E-06
-0.117,-5.14E-06
-0.116,-4.98E-06
-0.115,-4.88E-06
-0.114,-4.76E-06
-0.113,-4.73E-06
-0.112,-4.75E-06
-0.111,-4.60E-06
-0.11,-4.48E-06
-0.109,-4.33E-06
-0.108,-4.30E-06
-0.107,-4.33E-06
-0.106,-4.25E-06
-0.105,-4.08E-06
-0.104,-3.87E-06
-0.103,-3.75E-06
-0.102,-3.61E-06
-0.101,-3.51E-06
-0.1,-3.48E-06
-0.09901,-3.40E-06
-0.09801,-3.26E-06
-0.097,-3.16E-06
-0.09602,-3.11E-06
-0.09501,-2.95E-06
-0.09401,-2.88E-06
-0.09302,-2.75E-06
-0.09202,-2.81E-06
-0.09102,-2.63E-06
-0.09003,-2.55E-06
-0.089,-2.41E-06
-0.08801,-2.32E-06
-0.08702,-2.20E-06
-0.086,-2.12E-06
-0.08501,-1.95E-06
-0.084,-1.90E-06
-0.083,-1.79E-06
-0.08199,-1.74E-06
-0.081,-1.67E-06
-0.08001,-1.57E-06
-0.079,-1.47E-06
-0.07801,-1.41E-06
-0.07702,-1.31E-06
-0.076,-1.23E-06
-0.075,-1.10E-06
-0.07399,-1.03E-06
-0.07299,-9.41E-07
-0.07201,-8.85E-07
-0.07101,-7.95E-07
-0.07001,-7.04E-07
-0.06901,-5.89E-07
-0.06801,-4.93E-07
-0.06701,-4.12E-07
-0.06602,-3.72E-07
-0.06502,-3.01E-07
-0.06402,-1.95E-07
-0.063,-4.94E-08
-0.06201,-7.46E-10
-0.06101,1.18E-07
-0.06001,1.93E-07
-0.05901,3.32E-07
-0.05802,4.09E-07
-0.05699,5.33E-07
-0.05601,6.22E-07
-0.05501,7.02E-07
-0.05401,7.90E-07
-0.05303,9.35E-07
-0.05203,1.03E-06
-0.05103,1.12E-06
-0.05001,1.26E-06
-0.04898,1.40E-06
-0.04799,1.47E-06
-0.04701,1.58E-06
-0.04601,1.58E-06
-0.045,1.74E-06
-0.04399,1.82E-06
-0.04299,2.00E-06
-0.042,2.12E-06
-0.04101,2.25E-06
-0.04001,2.26E-06
-0.03902,2.36E-06
-0.03802,2.45E-06
-0.03701,2.57E-06
-0.03601,2.60E-06
-0.03502,2.72E-06
-0.03401,2.76E-06
-0.03301,2.87E-06
-0.03202,2.94E-06
-0.03101,3.08E-06
-0.03002,3.11E-06
-0.02901,3.26E-06
-0.02801,3.30E-06
-0.02702,3.37E-06
-0.02601,3.45E-06
-0.02499,3.57E-06
-0.02398,3.68E-06
-0.02298,3.87E-06
-0.02198,3.90E-06
-0.021,4.01E-06
-0.02,4.03E-06
-0.01901,4.16E-06
-0.018,4.23E-06
-0.017,4.35E-06
-0.016,4.41E-06
-0.01499,4.58E-06
-0.01401,4.66E-06
-0.013,4.77E-06
-0.01198,4.85E-06
-0.01099,4.96E-06
-0.00999,5.02E-06
-0.00899,5.07E-06
-0.008,5.14E-06
-0.00701,5.25E-06
-0.00601,5.30E-06
-0.005,5.39E-06
-0.00401,5.45E-06
-0.00302,5.59E-06
-0.00202,5.66E-06
-1.01E-03,5.85E-06
-9.36E-06,5.85E-06
0.00102,5.99E-06
0.00202,6.07E-06
0.00302,6.16E-06
0.00402,6.24E-06
0.00501,6.33E-06
0.00601,6.41E-06
0.00701,6.54E-06
0.008,6.56E-06
0.009,6.66E-06
0.01,6.70E-06
0.011,6.85E-06
0.01201,6.95E-06
0.01299,7.07E-06
0.01403,7.17E-06
0.01502,7.26E-06
0.01602,7.32E-06
0.01702,7.43E-06
0.018,7.50E-06
0.01899,7.58E-06
0.02001,7.65E-06
0.021,7.78E-06
0.022,7.90E-06
0.02301,8.04E-06
0.02399,8.10E-06
0.02499,8.18E-06
0.02601,8.22E-06
0.02702,8.36E-06
0.02802,8.44E-06
0.02903,8.57E-06
0.03003,8.62E-06
0.03101,8.74E-06
0.03201,8.81E-06
0.03301,8.94E-06
0.03402,8.99E-06
0.03501,9.11E-06
0.03602,9.21E-06
0.03701,9.34E-06
0.038,9.42E-06
0.03903,9.58E-06
0.04001,9.67E-06
0.04101,9.79E-06
0.04202,9.85E-06
0.04301,9.98E-06
0.04402,1.01E-05
0.04501,1.02E-05
0.04602,1.03E-05
0.04702,1.05E-05
0.04802,1.06E-05
0.04901,1.06E-05
0.04999,1.07E-05
0.05101,1.09E-05
0.05202,1.09E-05
0.05301,1.10E-05
0.05403,1.11E-05
0.05502,1.12E-05
0.05602,1.13E-05
0.05702,1.14E-05
0.05801,1.15E-05
0.05902,1.16E-05
0.06003,1.18E-05
0.06101,1.19E-05
0.06201,1.20E-05
0.06301,1.21E-05
0.06401,1.22E-05
0.06504,1.24E-05
0.06602,1.24E-05
0.06702,1.25E-05
0.06803,1.26E-05
0.06903,1.27E-05
0.07002,1.28E-05
0.07102,1.30E-05
0.07201,1.30E-05
0.07301,1.32E-05
0.07401,1.33E-05
0.07501,1.35E-05
0.07601,1.35E-05
0.07701,1.37E-05
0.07804,1.37E-05
0.07903,1.39E-05
0.08003,1.40E-05
0.08102,1.41E-05
0.08203,1.43E-05
0.08302,1.44E-05
0.08404,1.44E-05
0.08503,1.46E-05
0.08602,1.48E-05
0.08703,1.49E-05
0.08802,1.51E-05
0.08902,1.52E-05
0.09002,1.54E-05
0.09103,1.55E-05
0.09204,1.56E-05
0.09303,1.58E-05
0.09403,1.60E-05
0.09502,1.62E-05
0.09601,1.63E-05
0.09702,1.65E-05
0.09801,1.67E-05
0.09901,1.69E-05
0.1,1.71E-05
0.101,1.74E-05
0.102,1.76E-05
0.103,1.79E-05
0.104,1.82E-05
0.105,1.85E-05
0.106,1.88E-05
0.107,1.90E-05
0.108,1.94E-05
0.109,1.97E-05
0.11,2.01E-05
0.111,2.05E-05
0.112,2.08E-05
0.113,2.13E-05
0.114,2.17E-05
0.115,2.23E-05
0.116,2.27E-05
0.117,2.33E-05
0.118,2.39E-05
0.119,2.46E-05
0.12,2.53E-05
0.121,2.61E-05
0.122,2.68E-05
0.123,2.78E-05
0.124,2.88E-05
0.125,3.00E-05
0.126,3.13E-05
0.127,3.28E-05
0.128,3.46E-05
0.1291,3.67E-05
0.13,3.90E-05
0.131,4.18E-05
0.132,4.50E-05
0.133,4.87E-05
0.134,5.29E-05
0.135,5.77E-05
0.136,6.30E-05
0.137,6.89E-05
0.138,7.53E-05
0.139,8.23E-05
0.14,8.98E-05
0.141,9.78E-05
0.142,1.06E-04
0.143,1.15E-04
0.144,1.24E-04
0.145,1.34E-04
0.146,1.44E-04
0.147,1.54E-04
0.148,1.65E-04
0.149,1.75E-04
0.15,1.86E-04
0.151,1.97E-04
0.152,2.07E-04
0.153,2.18E-04
0.154,2.29E-04
0.155,2.39E-04
0.156,2.50E-04
0.157,2.61E-04
0.158,2.71E-04
0.159,2.82E-04
0.16,2.93E-04
0.161,3.03E-04
0.162,3.14E-04
0.163,3.24E-04
0.164,3.35E-04
0.165,3.46E-04
0.166,3.56E-04
0.167,3.66E-04
0.168,3.77E-04
0.1691,3.87E-04
0.17,3.97E-04
0.171,4.08E-04
0.172,4.18E-04
0.173,4.28E-04
0.174,4.38E-04
0.175,4.47E-04
0.176,4.57E-04
0.177,4.67E-04
0.178,4.76E-04
0.179,4.85E-04
0.18,4.94E-04
0.181,5.03E-04
0.182,5.11E-04
0.183,5.20E-04
0.184,5.28E-04
0.185,5.35E-04
0.186,5.43E-04
0.187,5.50E-04
0.188,5.57E-04
0.189,5.63E-04
0.19,5.69E-04
0.191,5.75E-04
0.192,5.80E-04
0.1931,5.85E-04
0.1941,5.90E-04
0.1951,5.94E-04
0.1961,5.98E-04
0.197,6.01E-04
0.198,6.04E-04
0.199,6.06E-04
0.2,6.08E-04
0.201,6.09E-04
0.202,6.09E-04
0.203,6.09E-04
0.204,6.09E-04
0.205,6.08E-04
0.206,6.06E-04
0.2071,6.04E-04
0.208,6.01E-04
0.209,5.97E-04
0.21,5.93E-04
0.211,5.87E-04
0.212,5.81E-04
0.213,5.73E-04
0.214,5.65E-04
0.215,5.55E-04
0.216,5.43E-04
0.217,5.30E-04
0.218,5.16E-04
0.2191,5.00E-04
0.2201,4.82E-04
0.2211,4.61E-04
0.2221,4.39E-04
0.223,4.13E-04
0.2241,3.85E-04
0.2251,3.52E-04
0.226,3.17E-04
0.2271,2.83E-04
0.2281,2.51E-04
0.229,2.22E-04
0.23,1.96E-04
0.2311,1.73E-04
0.2321,1.54E-04
0.2331,1.38E-04
0.2341,1.25E-04
0.2351,1.14E-04
0.2361,1.05E-04
0.2371,9.70E-05
0.2381,9.06E-05
0.2391,8.53E-05
0.24,8.06E-05
0.2411,7.68E-05
0.242,7.33E-05
0.243,7.03E-05
0.2441,6.77E-05
0.2451,6.54E-05
0.2461,6.32E-05
0.2471,6.13E-05
0.2481,5.96E-05
0.2491,5.80E-05
0.25,5.66E-05
0.2511,5.53E-05
0.2521,5.41E-05
0.2531,5.30E-05
0.254,5.19E-05
0.255,5.10E-05
0.256,5.01E-05
0.2571,4.93E-05
0.2581,4.85E-05
0.2591,4.78E-05
0.2601,4.72E-05
0.2611,4.66E-05
0.2621,4.59E-05
0.2631,4.54E-05
0.2641,4.48E-05
0.2651,4.44E-05
0.2661,4.40E-05
0.2671,4.36E-05
0.2681,4.31E-05
0.269,4.27E-05
0.2701,4.23E-05
0.2711,4.21E-05
0.2721,4.17E-05
0.2731,4.14E-05
0.2741,4.11E-05
0.2751,4.09E-05
0.2761,4.07E-05
0.2771,4.04E-05
0.2781,4.01E-05
0.2791,4.00E-05
0.2801,3.98E-05
0.2811,3.97E-05
0.2821,3.95E-05
0.2831,3.93E-05
0.2841,3.91E-05
0.2851,3.91E-05
0.2861,3.89E-05
0.2871,3.88E-05
0.2881,3.86E-05
0.2891,3.85E-05
0.2901,3.84E-05
0.2911,3.83E-05
0.2921,3.82E-05
0.293,3.81E-05
0.2941,3.80E-05
0.295,3.80E-05
0.2961,3.79E-05
0.2971,3.79E-05
0.2981,3.78E-05
0.2991,3.78E-05
0.3001,3.77E-05
0.3011,3.77E-05
0.3021,3.76E-05
0.3031,3.76E-05
0.3041,3.76E-05
0.3051,3.76E-05
0.3061,3.75E-05
0.3071,3.75E-05
0.3081,3.75E-05
0.3091,3.75E-05
0.3101,3.74E-05
0.3111,3.75E-05
0.3121,3.74E-05
0.3131,3.75E-05
0.3141,3.75E-05
0.3151,3.75E-05
0.3161,3.75E-05
0.3171,3.75E-05
0.3181,3.76E-05
0.3191,3.76E-05
0.3201,3.76E-05
0.3211,3.76E-05
0.3221,3.77E-05
0.3231,3.78E-05
0.3241,3.78E-05
0.3251,3.79E-05
0.3261,3.79E-05
0.3271,3.80E-05
0.3281,3.80E-05
0.3291,3.81E-05
0.3301,3.81E-05
0.3311,3.83E-05
0.3321,3.84E-05
0.3331,3.85E-05
0.3341,3.86E-05
0.3351,3.87E-05
0.3361,3.87E-05
0.3371,3.89E-05
0.3381,3.90E-05
0.3391,3.91E-05
0.3401,3.92E-05
0.3411,3.94E-05
0.3421,3.95E-05
0.3431,3.96E-05
0.3441,3.97E-05
0.3451,3.99E-05
0.3461,4.00E-05
0.3471,4.02E-05
0.3481,4.03E-05
0.3491,4.05E-05
0.3501,4.07E-05
0.3511,4.09E-05
0.3521,4.10E-05
0.3531,4.12E-05
0.3541,4.14E-05
0.3551,4.16E-05
0.3561,4.17E-05
0.3571,4.19E-05
0.3581,4.21E-05
0.3591,4.24E-05
0.3601,4.26E-05
0.3611,4.28E-05
0.3621,4.30E-05
0.3631,4.33E-05
0.3641,4.36E-05
0.3651,4.38E-05
0.3661,4.41E-05
0.3671,4.43E-05
0.3681,4.45E-05
0.3691,4.48E-05
0.3701,4.50E-05
0.3711,4.54E-05
0.3721,4.56E-05
0.3731,4.59E-05
0.3741,4.61E-05
0.3751,4.64E-05
0.3761,4.66E-05
0.3771,4.69E-05
0.3781,4.72E-05
0.3791,4.75E-05
0.3801,4.78E-05
0.3811,4.81E-05
0.3821,4.84E-05
0.3831,4.88E-05
0.3841,4.91E-05
0.3851,4.94E-05
0.3861,4.97E-05
0.3871,5.01E-05
0.3881,5.04E-05
0.3891,5.08E-05
0.3901,5.11E-05
0.3911,5.15E-05
0.3921,5.18E-05
0.3931,5.21E-05
0.3941,5.24E-05
0.3951,5.28E-05
0.3961,5.31E-05
0.3971,5.35E-05
0.3981,5.38E-05
0.3991,5.42E-05
0.4001,5.46E-05
0.3992,4.75E-05
0.3982,4.40E-05
0.3971,4.12E-05
0.3961,3.89E-05
0.3951,3.68E-05
0.3941,3.49E-05
0.3931,3.32E-05
0.3922,3.15E-05
0.3911,3.01E-05
0.3901,2.86E-05
0.3891,2.73E-05
0.3882,2.60E-05
0.3872,2.49E-05
0.3862,2.37E-05
0.3851,2.28E-05
0.3841,2.17E-05
0.3831,2.08E-05
0.3821,1.99E-05
0.3811,1.90E-05
0.3801,1.81E-05
0.3791,1.74E-05
0.3781,1.66E-05
0.3771,1.59E-05
0.3761,1.52E-05
0.3751,1.45E-05
0.3741,1.39E-05
0.3731,1.32E-05
0.3721,1.26E-05
0.3711,1.21E-05
0.3701,1.15E-05
0.3691,1.10E-05
0.3681,1.05E-05
0.3671,1.00E-05
0.3661,9.54E-06
0.3651,9.09E-06
0.3641,8.61E-06
0.3631,8.21E-06
0.3621,7.80E-06
0.3611,7.44E-06
0.3601,7.00E-06
0.3591,6.60E-06
0.3581,6.22E-06
0.3571,5.92E-06
0.3561,5.53E-06
0.3551,5.29E-06
0.3541,4.93E-06
0.3531,4.65E-06
0.3521,4.30E-06
0.3511,4.03E-06
0.3501,3.74E-06
0.3491,3.47E-06
0.3481,3.17E-06
0.3471,2.92E-06
0.3461,2.64E-06
0.3451,2.44E-06
0.3441,2.17E-06
0.3431,1.99E-06
0.3421,1.77E-06
0.3411,1.55E-06
0.3401,1.33E-06
0.3391,1.17E-06
0.3381,9.05E-07
0.3371,7.63E-07
0.3361,5.38E-07
0.3351,3.41E-07
0.3341,1.63E-07
0.3331,-2.73E-08
0.3321,-2.40E-07
0.3311,-4.48E-07
0.3301,-6.57E-07
0.3291,-7.91E-07
0.3281,-9.62E-07
0.3271,-1.12E-06
0.3261,-1.29E-06
0.3251,-1.38E-06
0.3241,-1.56E-06
0.3231,-1.71E-06
0.3221,-1.91E-06
0.3211,-2.01E-06
0.3201,-2.19E-06
0.3191,-2.29E-06
0.3181,-2.39E-06
0.3171,-2.46E-06
0.3161,-2.61E-06
0.3151,-2.74E-06
0.3141,-2.90E-06
0.3131,-3.06E-06
0.3121,-3.23E-06
0.3111,-3.28E-06
0.3101,-3.41E-06
0.3092,-3.49E-06
0.3081,-3.64E-06
0.3071,-3.79E-06
0.3061,-3.92E-06
0.3051,-4.00E-06
0.3041,-4.08E-06
0.3031,-4.22E-06
0.3021,-4.31E-06
0.3011,-4.39E-06
0.3001,-4.55E-06
0.2991,-4.58E-06
0.2981,-4.69E-06
0.2971,-4.76E-06
0.2961,-4.90E-06
0.2951,-5.00E-06
0.2941,-5.12E-06
0.2931,-5.20E-06
0.2921,-5.28E-06
0.2911,-5.33E-06
0.2901,-5.46E-06
0.2891,-5.52E-06
0.2881,-5.64E-06
0.2871,-5.74E-06
0.2861,-5.84E-06
0.2851,-5.95E-06
0.2841,-6.03E-06
0.2831,-6.10E-06
0.2821,-6.20E-06
0.2811,-6.27E-06
0.2801,-6.41E-06
0.2791,-6.46E-06
0.2781,-6.56E-06
0.2771,-6.64E-06
0.2761,-6.75E-06
0.2751,-6.83E-06
0.2741,-6.90E-06
0.2731,-6.96E-06
0.2721,-7.07E-06
0.2711,-7.11E-06
0.2701,-7.22E-06
0.2691,-7.26E-06
0.2681,-7.36E-06
0.2671,-7.44E-06
0.2661,-7.54E-06
0.2651,-7.58E-06
0.2641,-7.67E-06
0.2631,-7.72E-06
0.2621,-7.77E-06
0.2611,-7.85E-06
0.2601,-7.97E-06
0.2591,-8.04E-06
0.2581,-8.15E-06
0.2571,-8.21E-06
0.2561,-8.30E-06
0.2551,-8.38E-06
0.2541,-8.46E-06
0.2531,-8.50E-06
0.2521,-8.59E-06
0.2511,-8.66E-06
0.2501,-8.73E-06
0.2491,-8.85E-06
0.2481,-8.91E-06
0.2471,-9.03E-06
0.2461,-9.15E-06
0.2451,-9.21E-06
0.2441,-9.34E-06
0.2431,-9.41E-06
0.2421,-9.46E-06
0.2411,-9.50E-06
0.2401,-9.60E-06
0.2391,-9.66E-06
0.2381,-9.77E-06
0.2371,-9.81E-06
0.2361,-9.89E-06
0.2351,-9.95E-06
0.2341,-1.00E-05
0.2331,-1.01E-05
0.2321,-1.02E-05
0.2311,-1.02E-05
0.2301,-1.04E-05
0.2291,-1.05E-05
0.2281,-1.06E-05
0.2271,-1.06E-05
0.2261,-1.07E-05
0.2251,-1.08E-05
0.2241,-1.09E-05
0.2231,-1.10E-05
0.2221,-1.10E-05
0.2211,-1.11E-05
0.2201,-1.12E-05
0.2191,-1.12E-05
0.2181,-1.13E-05
0.2171,-1.13E-05
0.2161,-1.15E-05
0.2151,-1.15E-05
0.2141,-1.16E-05
0.2131,-1.17E-05
0.2121,-1.18E-05
0.2111,-1.18E-05
0.2101,-1.19E-05
0.2091,-1.20E-05
0.2081,-1.21E-05
0.2071,-1.22E-05
0.2061,-1.23E-05
0.2051,-1.23E-05
0.2041,-1.24E-05
0.2031,-1.25E-05
0.2021,-1.25E-05
0.2011,-1.26E-05
0.2001,-1.27E-05
0.1991,-1.28E-05
0.1981,-1.28E-05
0.1971,-1.29E-05
0.1961,-1.29E-05
0.1951,-1.30E-05
0.1941,-1.31E-05
0.1931,-1.32E-05
0.1921,-1.33E-05
0.1911,-1.34E-05
0.1901,-1.35E-05
0.1891,-1.35E-05
0.1881,-1.36E-05
0.1871,-1.36E-05
0.1861,-1.37E-05
0.1851,-1.38E-05
0.1841,-1.39E-05
0.1831,-1.39E-05
0.1821,-1.40E-05
0.1811,-1.40E-05
0.1801,-1.41E-05
0.1791,-1.42E-05
0.1781,-1.42E-05
0.1771,-1.43E-05
0.1761,-1.44E-05
0.1751,-1.44E-05
0.1741,-1.45E-05
0.1731,-1.46E-05
0.1721,-1.47E-05
0.1711,-1.48E-05
0.1701,-1.48E-05
0.1691,-1.48E-05
0.1681,-1.49E-05
0.1671,-1.50E-05
0.1661,-1.50E-05
0.1651,-1.51E-05
0.1641,-1.52E-05
0.1631,-1.52E-05
0.1621,-1.53E-05
0.1611,-1.54E-05
0.1601,-1.55E-05
0.1591,-1.55E-05
0.1581,-1.55E-05
0.1571,-1.56E-05
0.1561,-1.56E-05
0.1551,-1.56E-05
0.1541,-1.57E-05
0.1531,-1.57E-05
0.1521,-1.58E-05
0.1511,-1.58E-05
0.1501,-1.59E-05
0.1491,-1.59E-05
0.1481,-1.60E-05
0.1471,-1.60E-05
0.1461,-1.61E-05
0.1451,-1.61E-05
0.1441,-1.62E-05
0.1431,-1.62E-05
0.1421,-1.63E-05
0.1411,-1.63E-05
0.1401,-1.63E-05
0.1391,-1.64E-05
0.1381,-1.64E-05
0.1371,-1.64E-05
0.1361,-1.65E-05
0.1351,-1.65E-05
0.1341,-1.66E-05
0.1331,-1.67E-05
0.1321,-1.67E-05
0.1311,-1.67E-05
0.1301,-1.68E-05
0.1291,-1.68E-05
0.1281,-1.69E-05
0.1271,-1.69E-05
0.1261,-1.70E-05
0.1251,-1.70E-05
0.1241,-1.71E-05
0.1231,-1.71E-05
0.1221,-1.72E-05
0.1211,-1.72E-05
0.1201,-1.73E-05
0.1191,-1.74E-05
0.1181,-1.75E-05
0.1171,-1.75E-05
0.1161,-1.76E-05
0.1151,-1.76E-05
0.1141,-1.77E-05
0.1131,-1.78E-05
0.1121,-1.79E-05
0.1111,-1.79E-05
0.1101,-1.80E-05
0.1091,-1.81E-05
0.1081,-1.82E-05
0.1071,-1.83E-05
0.1061,-1.84E-05
0.1051,-1.85E-05
0.1041,-1.87E-05
0.1031,-1.88E-05
0.1021,-1.89E-05
0.1011,-1.90E-05
0.1001,-1.91E-05
0.09906,-1.92E-05
0.09805,-1.94E-05
0.09707,-1.95E-05
0.09606,-1.96E-05
0.09507,-1.98E-05
0.09407,-2.00E-05
0.09307,-2.01E-05
0.09208,-2.03E-05
0.09107,-2.04E-05
0.09006,-2.06E-05
0.08906,-2.08E-05
0.08806,-2.10E-05
0.08707,-2.13E-05
0.08606,-2.15E-05
0.08507,-2.17E-05
0.08408,-2.19E-05
0.08307,-2.22E-05
0.08207,-2.24E-05
0.08106,-2.27E-05
0.08006,-2.30E-05
0.07907,-2.32E-05
0.07809,-2.35E-05
0.07705,-2.38E-05
0.07606,-2.41E-05
0.07505,-2.45E-05
0.07405,-2.48E-05
0.07306,-2.51E-05
0.07206,-2.55E-05
0.07107,-2.59E-05
0.07006,-2.64E-05
0.06906,-2.68E-05
0.06807,-2.73E-05
0.06707,-2.77E-05
0.06607,-2.82E-05
0.06508,-2.87E-05
0.06405,-2.92E-05
0.06306,-2.98E-05
0.06205,-3.04E-05
0.06105,-3.09E-05
0.06006,-3.16E-05
0.05906,-3.22E-05
0.05806,-3.29E-05
0.05706,-3.36E-05
0.05607,-3.43E-05
0.05507,-3.50E-05
0.05408,-3.58E-05
0.05307,-3.67E-05
0.05207,-3.75E-05
0.05106,-3.84E-05
0.05004,-3.94E-05
0.04905,-4.03E-05
0.04805,-4.13E-05
0.04705,-4.24E-05
0.04606,-4.35E-05
0.04504,-4.46E-05
0.04406,-4.58E-05
0.04305,-4.70E-05
0.04205,-4.82E-05
0.04105,-4.95E-05
0.04005,-5.08E-05
0.03907,-5.22E-05
0.03805,-5.37E-05
0.03705,-5.51E-05
0.03607,-5.67E-05
0.03506,-5.83E-05
0.03407,-6.00E-05
0.03307,-6.17E-05
0.03207,-6.35E-05
0.03107,-6.54E-05
0.03007,-6.73E-05
0.02908,-6.93E-05
0.02807,-7.14E-05
0.02707,-7.35E-05
0.02607,-7.58E-05
0.02504,-7.82E-05
0.02404,-8.07E-05
0.02305,-8.33E-05
0.02204,-8.60E-05
0.02105,-8.88E-05
0.02006,-9.17E-05
0.01905,-9.47E-05
0.01805,-9.80E-05
0.01706,-1.01E-04
0.01606,-1.05E-04
0.01506,-1.08E-04
0.01408,-1.12E-04
0.01304,-1.16E-04
0.01206,-1.20E-04
0.01106,-1.24E-04
0.01005,-1.29E-04
0.00906,-1.34E-04
0.00805,-1.38E-04
0.00706,-1.43E-04
0.00606,-1.48E-04
0.00506,-1.53E-04
0.00406,-1.58E-04
0.00306,-1.64E-04
0.00207,-1.69E-04
0.00108,-1.75E-04
5.20E-05,-1.80E-04
-9.50E-04,-1.86E-04
-0.00196,-1.91E-04
-0.00297,-1.97E-04
-0.00395,-2.03E-04
-0.00495,-2.08E-04
-0.00595,-2.14E-04
-0.00695,-2.19E-04
-0.00795,-2.25E-04
-0.00894,-2.30E-04
-0.00995,-2.36E-04
-0.01094,-2.42E-04
-0.01195,-2.47E-04
-0.01297,-2.53E-04
-0.01397,-2.59E-04
-0.01496,-2.64E-04
-0.01596,-2.70E-04
-0.01695,-2.75E-04
-0.01795,-2.81E-04
-0.01896,-2.87E-04
-0.01995,-2.92E-04
-0.02095,-2.97E-04
-0.02195,-3.03E-04
-0.02295,-3.08E-04
-0.02394,-3.13E-04
-0.02494,-3.18E-04
-0.02595,-3.23E-04
-0.02696,-3.28E-04
-0.02796,-3.33E-04
-0.02896,-3.37E-04
-0.02997,-3.42E-04
-0.03096,-3.46E-04
-0.03197,-3.50E-04
-0.03295,-3.54E-04
-0.03395,-3.57E-04
-0.03496,-3.61E-04
-0.03595,-3.64E-04
-0.03695,-3.67E-04
-0.03796,-3.70E-04
-0.03896,-3.73E-04
-0.03996,-3.75E-04
-0.04097,-3.77E-04
-0.04196,-3.79E-04
-0.04296,-3.81E-04
-0.04396,-3.82E-04
-0.04496,-3.84E-04
-0.04596,-3.85E-04
-0.04696,-3.85E-04
-0.04796,-3.86E-04
-0.04895,-3.86E-04
-0.04996,-3.86E-04
-0.05098,-3.86E-04
-0.05198,-3.85E-04
-0.05298,-3.84E-04
-0.05396,-3.83E-04
-0.05497,-3.81E-04
-0.05597,-3.79E-04
-0.05695,-3.77E-04
-0.05798,-3.75E-04
-0.05897,-3.72E-04
-0.05997,-3.69E-04
-0.06096,-3.65E-04
-0.06196,-3.62E-04
-0.06295,-3.58E-04
-0.06397,-3.54E-04
-0.06498,-3.49E-04
-0.06598,-3.45E-04
-0.06697,-3.40E-04
-0.06797,-3.35E-04
-0.06896,-3.30E-04
-0.06997,-3.26E-04
-0.07097,-3.21E-04
-0.07197,-3.16E-04
-0.07295,-3.11E-04
-0.07395,-3.07E-04
-0.07495,-3.02E-04
-0.07595,-2.98E-04
-0.07696,-2.93E-04
-0.07797,-2.89E-04
-0.07896,-2.84E-04
-0.07996,-2.80E-04
-0.08096,-2.76E-04
-0.08195,-2.71E-04
-0.08296,-2.67E-04
-0.08396,-2.62E-04
-0.08497,-2.58E-04
-0.08596,-2.53E-04
-0.08696,-2.48E-04
-0.08795,-2.43E-04
-0.08894,-2.37E-04
-0.08997,-2.32E-04
-0.09096,-2.26E-04
-0.09197,-2.19E-04
-0.09297,-2.13E-04
-0.09397,-2.06E-04
-0.09496,-1.99E-04
-0.09598,-1.93E-04
-0.09696,-1.86E-04
-0.09796,-1.79E-04
-0.09896,-1.72E-04
-0.09995,-1.65E-04
-0.101,-1.58E-04
-0.102,-1.52E-04
-0.103,-1.45E-04
-0.104,-1.39E-04
-0.105,-1.34E-04
-0.106,-1.28E-04
-0.107,-1.22E-04
-0.108,-1.17E-04
-0.109,-1.12E-04
-0.11,-1.08E-04
-0.111,-1.04E-04
-0.112,-9.99E-05
-0.113,-9.67E-05
-0.114,-9.34E-05
-0.115,-9.04E-05
-0.116,-8.75E-05
-0.117,-8.49E-05
-0.118,-8.23E-05
